# Envelope of the raw data
#   MATLAB signal filter envelope(..., 'peak') applied
#   Data scaled to the range from 0 to 1 for the envelope
#   Interpolated to delta t = 0.05 to reduce data
Time;Sensor 1;Sensor 2;Sensor 3;Sensor 4;Sensor 5;Sensor 6;Sensor 7;Sensor 8
0;-0.0010568;-0.0016143;-0.0076258;0.028875;0.057935;0.010575;-0.0095852;0.043159
0.05;-0.0014185;-4.737e-05;-0.0072794;0.025686;0.051213;0.009276;-0.0083629;0.039467
0.1;-0.0017415;0.0013238;-0.0069274;0.022678;0.044904;0.0080513;-0.0072212;0.035946
0.15;-0.0020271;0.0025079;-0.0065705;0.019848;0.038999;0.0068999;-0.006158;0.032593
0.2;-0.0022773;0.0035167;-0.0062096;0.017186;0.033477;0.0058184;-0.0051692;0.0294
0.25;-0.0024936;0.0043603;-0.0058451;0.014685;0.028322;0.004804;-0.0042514;0.026361
0.3;-0.0026772;0.0050467;-0.0054783;0.012344;0.023526;0.0038559;-0.0034033;0.023475
0.35;-0.0028298;0.005586;-0.0051101;0.010157;0.019076;0.0029719;-0.0026219;0.020738
0.4;-0.0029506;0.0059807;-0.0047486;0.0081576;0.015037;0.0021655;-0.0019181;0.018195
0.45;-0.003049;0.006264;-0.0043657;0.0061885;0.01109;0.0013736;-0.0012365;0.015647
0.5;-0.0031188;0.0064184;-0.0039835;0.0043672;0.007472;0.0006436;-0.00061784;0.013244
0.55;-0.0031612;0.0064534;-0.0036031;0.0026885;0.0041686;-2.6656e-05;-5.9363e-05;0.010981
0.6;-0.0031779;0.0063785;-0.003225;0.0011463;0.0011655;-0.00063949;0.00044185;0.0088545
0.65;-0.0031703;0.0062031;-0.0028502;-0.00026446;-0.0015502;-0.0011969;0.00088842;0.0068593
0.7;-0.0031399;0.0059361;-0.0024798;-0.0015474;-0.0039885;-0.0017005;0.0012825;0.0049934
0.75;-0.003088;0.0055861;-0.0021136;-0.0027111;-0.0061688;-0.0021535;0.0016277;0.003248
0.8;-0.003016;0.0051622;-0.0017531;-0.0037579;-0.0080982;-0.0025568;0.0019259;0.0016227
0.85;-0.0029265;0.0046793;-0.0014035;-0.0046816;-0.0097694;-0.0029084;0.0021764;0.00013157
0.9;-0.0028181;0.0041306;-0.0010547;-0.0055149;-0.011244;-0.0032206;0.0023894;-0.0012744
0.95;-0.002689;0.0035119;-0.00070265;-0.0062677;-0.012542;-0.0034969;0.0025674;-0.002613
1;-0.0025442;0.0028499;-0.00035997;-0.0069152;-0.013621;-0.0037279;0.0027052;-0.0038386
1.05;-0.0023848;0.0021523;-2.6845e-05;-0.0074638;-0.014496;-0.0039164;0.0028057;-0.0049581
1.1;-0.002212;0.0014268;0.00029618;-0.0079182;-0.015179;-0.0040639;0.0028711;-0.0059754
1.15;-0.0020273;0.00068304;0.00060792;-0.008283;-0.015682;-0.0041725;0.002904;-0.0068934
1.2;-0.0018322;-7.0959e-05;0.00090768;-0.0085626;-0.016017;-0.0042439;0.0029068;-0.0077159
1.25;-0.0016276;-0.00082834;0.0011952;-0.0087621;-0.016194;-0.0042801;0.0028817;-0.0084478
1.3;-0.0014149;-0.0015805;0.0014696;-0.008886;-0.016226;-0.0042828;0.0028311;-0.009092
1.35;-0.0012021;-0.0022979;0.0017224;-0.0089379;-0.016129;-0.0042552;0.0027597;-0.0096366
1.4;-0.00096819;-0.0030452;0.0019782;-0.0089236;-0.015894;-0.0041943;0.0026613;-0.010136
1.45;-0.00072968;-0.0037626;0.0022176;-0.008842;-0.015539;-0.0041032;0.0025426;-0.010553
1.5;-0.00048748;-0.0044427;0.0024402;-0.0086975;-0.015073;-0.0039834;0.0024058;-0.01089
1.55;-0.00024303;-0.0050777;0.0026454;-0.0084951;-0.014508;-0.0038371;0.0022534;-0.011153
1.6;2.6361e-06;-0.0056604;0.0028325;-0.0082389;-0.013855;-0.0036658;0.0020875;-0.011345
1.65;0.0002483;-0.0061833;0.0030009;-0.0079334;-0.013126;-0.0034714;0.0019102;-0.011469
1.7;0.00049286;-0.0066396;0.0031502;-0.0075829;-0.012329;-0.0032555;0.0017238;-0.01153
1.75;0.00073526;-0.007022;0.0032797;-0.0071912;-0.011476;-0.0030196;0.0015302;-0.01153
1.8;0.00097443;-0.0073239;0.0033888;-0.0067625;-0.010577;-0.0027653;0.0013314;-0.011473
1.85;0.001205;-0.0075353;0.0034756;-0.0063095;-0.0096578;-0.0024995;0.0011333;-0.011365
1.9;0.0014426;-0.0076601;0.0035448;-0.0058011;-0.00866;-0.0022032;0.00092306;-0.011197
1.95;0.0016732;-0.0076767;0.0035903;-0.0052655;-0.0076436;-0.0018922;0.00071367;-0.010979
2;0.0018957;-0.0075785;0.0036117;-0.0047073;-0.0066193;-0.0015685;0.00050734;-0.010714
2.05;0.0021087;-0.0073586;0.0036082;-0.0041308;-0.0055979;-0.0012338;0.00030624;-0.010404
2.1;0.0023116;-0.0070107;0.0035795;-0.0035396;-0.0045881;-0.00088934;0.00011213;-0.010055
2.15;0.002503;-0.0065288;0.0035249;-0.0029379;-0.0036004;-0.000537;-7.2863e-05;-0.0096679
2.2;0.0026821;-0.005922;0.0034441;-0.0023289;-0.0026432;-0.00017799;-0.00024704;-0.0092469
2.25;0.0028479;-0.00521;0.0033364;-0.0017167;-0.0017259;0.00018612;-0.00040851;-0.0087949
2.3;0.0029935;-0.0044457;0.0032074;-0.0011296;-0.00089191;0.0005389;-0.00054971;-0.0083348
2.35;0.0031351;-0.00355;0.0030391;-0.00049892;-5.0239e-05;0.00092256;-0.0006854;-0.0078116
2.4;0.0032593;-0.0026037;0.0028407;0.00012339;0.00071978;0.0013069;-0.00080164;-0.007265
2.45;0.003365;-0.001626;0.0026113;0.00073389;0.0014087;0.0016898;-0.00089644;-0.0066979
2.5;0.0034513;-0.0006375;0.0023506;0.0013289;0.0020093;0.002068;-0.00096811;-0.0061135
2.55;0.0035171;0.00034104;0.0020585;0.0019038;0.0025229;0.0024373;-0.0010146;-0.0055157
2.6;0.0035616;0.0012929;0.0017339;0.0024566;0.0029584;0.0027954;-0.0010341;-0.004906
2.65;0.003584;0.0021977;0.0013768;0.002984;0.0033218;0.0031382;-0.0010241;-0.0042884
2.7;0.0035832;0.0030375;0.00098815;0.0034851;0.0036201;0.0034627;-0.00098206;-0.0036655
2.75;0.0035585;0.0037952;0.00057213;0.0039594;0.0038604;0.0037659;-0.00090586;-0.0030399
2.8;0.0035106;0.0044369;0.0001456;0.0043946;0.0040446;0.0040376;-0.00079662;-0.0024309
2.85;0.0034327;0.0049988;-0.0003276;0.0048289;0.0041937;0.0042984;-0.00063968;-0.0017845
2.9;0.0033264;0.0054166;-0.00081441;0.0052315;0.004301;0.0045263;-0.00043879;-0.0011444
2.95;0.003191;0.0056717;-0.0013095;0.0056015;0.0043732;0.004718;-0.00019171;-0.00051359
3;0.0030251;0.0057472;-0.001809;0.0059389;0.0044173;0.0048706;0.00010444;0.00010656
3.05;0.0028286;0.005626;-0.0023065;0.0062419;0.0044398;0.0049809;0.00045083;0.00071132
3.1;0.0026;0.0052901;-0.0027987;0.0065108;0.004447;0.0050459;0.00085093;0.0012999
3.15;0.0023388;0.0047241;-0.0032805;0.0067444;0.0044452;0.0050628;0.0013062;0.0018691
3.2;0.0020443;0.0039115;-0.003747;0.0069419;0.0044407;0.0050287;0.0018187;0.002416
3.25;0.0017157;0.0028363;-0.004194;0.0071028;0.0044394;0.0049407;0.0023906;0.0029383
3.3;0.0013565;0.0015029;-0.0046127;0.0072251;0.004447;0.0048014;0.0030164;0.0034284
3.35;0.00094262;-0.00016209;-0.0050222;0.0073136;0.0044705;0.0046079;0.0037391;0.0039116
3.4;0.0004896;-0.0020549;-0.0053968;0.0073604;0.0045163;0.0043752;0.0045321;0.0043606
3.45;-3.2476e-06;-0.0041286;-0.0057324;0.0073651;0.0045894;0.004113;0.0053974;0.0047733
3.5;-0.0005366;-0.0063373;-0.006024;0.0073267;0.0046901;0.0038306;0.0063371;0.0051468
3.55;-0.0011107;-0.0086352;-0.0062675;0.0072449;0.0048158;0.0035373;0.0073518;0.0054796
3.6;-0.001727;-0.010981;-0.0064588;0.0071187;0.0049645;0.0032418;0.0084361;0.0057701
3.65;-0.0023823;-0.01333;-0.0065937;0.0069479;0.0051337;0.002953;0.0095749;0.0060167
3.7;-0.0030569;-0.015642;-0.0066683;0.0067318;0.0053213;0.0026793;0.010755;0.006218
3.75;-0.0037023;-0.017797;-0.0066794;0.0064798;0.0055176;0.0024375;0.011918;0.0063678
3.8;-0.0043651;-0.019995;-0.0066205;0.0061603;0.0057438;0.0022102;0.013184;0.0064788
3.85;-0.0049688;-0.022024;-0.0064846;0.0057904;0.0059829;0.0020253;0.014451;0.0065364
3.9;-0.0054867;-0.02384;-0.0062671;0.0053694;0.0062328;0.001892;0.015703;0.006539
3.95;-0.005894;-0.025405;-0.0059644;0.0048964;0.0064915;0.0018181;0.016928;0.0064852
4;-0.0061646;-0.026678;-0.0055724;0.0043711;0.0067568;0.0018125;0.018112;0.0063734
4.05;-0.0062741;-0.027617;-0.0050875;0.0037931;0.0070265;0.0018829;0.01924;0.0062024
4.1;-0.0061989;-0.028186;-0.004506;0.0031625;0.0072987;0.0020373;0.020301;0.0059708
4.15;-0.0059145;-0.028345;-0.0038242;0.0025196;0.0075712;0.0022836;0.02128;0.005677
4.2;-0.0053991;-0.028059;-0.0030391;0.0019519;0.0078421;0.002629;0.022166;0.0053202
4.25;-0.0046483;-0.027313;-0.0021592;0.0015544;0.0081042;0.0030706;0.022932;0.0049081
4.3;-0.0035652;-0.025983;-0.0010413;0.0013968;0.0083762;0.0036571;0.02362;0.004403
4.35;-0.002162;-0.02406;0.00036171;0.0016032;0.0086405;0.0043737;0.024169;0.0038259
4.4;-0.00041754;-0.021509;0.0021411;0.0022655;0.008895;0.0052269;0.024566;0.003176
4.45;0.0016952;-0.018288;0.0043924;0.0034772;0.0091381;0.006213;0.024799;0.0024508
4.5;0.0041959;-0.014366;0.0072015;0.0053244;0.0093679;0.0073029;0.024856;0.0016496
4.55;0.0071038;-0.0097098;0.010654;0.0078945;0.0095819;0.0084655;0.024725;0.0007726
4.6;0.010444;-0.0042794;0.014839;0.011274;0.0097791;0.0096745;0.024395;-0.00017567
4.65;0.014223;0.0019509;0.019834;0.015541;0.0099573;0.0109;0.023855;-0.0011754
4.7;0.018408;0.0089462;0.025663;0.020726;0.010113;0.012102;0.0231;-0.0021982
4.75;0.023102;0.016882;0.032538;0.027026;0.010249;0.013282;0.022104;-0.0032483
4.8;0.028442;0.025955;0.040756;0.03473;0.010364;0.014434;0.020818;-0.0043301
4.85;0.034289;0.03587;0.050193;0.043736;0.010452;0.015488;0.019259;-0.0053883
4.9;0.040648;0.046578;0.060924;0.054117;0.01051;0.016416;0.017416;-0.0064037
4.95;0.047522;0.058028;0.073026;0.065952;0.010537;0.01719;0.015291;-0.007356
5;0.054924;0.070188;0.086587;0.079327;0.010532;0.017783;0.012928;-0.0082284
5.05;0.062856;0.083007;0.10167;0.094311;0.010493;0.018169;0.010385;-0.0090019
5.1;0.071322;0.096442;0.11836;0.11098;0.010432;0.018321;0.0077186;-0.0096585
5.15;0.080326;0.11045;0.13671;0.12938;0.010387;0.018217;0.0049831;-0.010182
5.2;0.089579;0.12454;0.15613;0.14897;0.010394;0.017847;0.0023131;-0.010546
5.25;0.10008;0.14017;0.17855;0.17184;0.010496;0.017131;-0.00051381;-0.010762
5.3;0.11116;0.15627;0.20237;0.19639;0.010736;0.016066;-0.0032454;-0.010781
5.35;0.12285;0.17283;0.2274;0.22243;0.011155;0.014696;-0.0058308;-0.010585
5.4;0.13517;0.18981;0.25344;0.24974;0.011791;0.013136;-0.0082184;-0.010158
5.45;0.1481;0.20716;0.28022;0.27804;0.012682;0.011501;-0.010351;-0.0094825
5.5;0.16166;0.22484;0.30757;0.30716;0.013867;0.0099018;-0.012179;-0.0085423
5.55;0.17585;0.24283;0.33526;0.33687;0.015381;0.0084463;-0.013655;-0.0073219
5.6;0.19063;0.26107;0.3631;0.36696;0.01726;0.0072429;-0.014725;-0.0058052
5.65;0.20594;0.27953;0.39088;0.3972;0.019539;0.0063951;-0.015344;-0.0039773
5.7;0.22143;0.29784;0.41791;0.42687;0.022197;0.0060066;-0.015467;-0.0018659
5.75;0.23823;0.31731;0.44601;0.45797;0.025495;0.0061786;-0.015028;0.00072128
5.8;0.25542;0.33688;0.47345;0.48862;0.029334;0.0070582;-0.013956;0.0036919
5.85;0.27292;0.35646;0.49998;0.51857;0.03374;0.0087462;-0.012232;0.0070553
5.9;0.29068;0.37603;0.52543;0.54764;0.038756;0.011352;-0.009834;0.010832
5.95;0.30862;0.39551;0.5496;0.57561;0.044405;0.014966;-0.006754;0.01503
6;0.32672;0.41488;0.57232;0.60232;0.050733;0.019698;-0.0029672;0.019671
6.05;0.34491;0.43408;0.59341;0.62757;0.057768;0.025642;0.0015387;0.024767
6.1;0.36313;0.45307;0.61267;0.65118;0.065537;0.032887;0.0067761;0.030314
6.15;0.38064;0.47109;0.62933;0.67228;0.073736;0.041173;0.012521;0.036074
6.2;0.39939;0.49015;0.6452;0.69327;0.083378;0.05152;0.019488;0.042727
6.25;0.41806;0.50889;0.65916;0.71265;0.093932;0.063261;0.027306;0.04987
6.3;0.43653;0.52718;0.67132;0.7304;0.1054;0.076236;0.035972;0.057475
6.35;0.45474;0.545;0.68187;0.74661;0.11782;0.090314;0.045496;0.065538
6.4;0.47266;0.56231;0.69097;0.76135;0.13122;0.10539;0.055907;0.074063
6.45;0.49021;0.57903;0.69877;0.77468;0.14562;0.1213;0.067196;0.083028
6.5;0.50736;0.59514;0.70544;0.78668;0.16105;0.13794;0.079382;0.092433
6.55;0.52412;0.61061;0.71114;0.79741;0.17756;0.15522;0.092496;0.10229
6.6;0.54047;0.62538;0.71601;0.80694;0.1951;0.17301;0.10654;0.11257
6.65;0.55597;0.63905;0.7201;0.81513;0.21304;0.19069;0.1211;0.12299
6.7;0.57203;0.65284;0.72391;0.82273;0.23295;0.20983;0.13755;0.13455
6.75;0.58761;0.66585;0.72729;0.82924;0.25349;0.22915;0.1548;0.14654
6.8;0.60269;0.67811;0.73041;0.83473;0.2745;0.24853;0.17274;0.15898
6.85;0.61727;0.68963;0.73342;0.83926;0.29584;0.26787;0.19126;0.17186
6.9;0.63133;0.70045;0.73646;0.84289;0.31735;0.28705;0.21021;0.18518
6.95;0.64487;0.71057;0.73968;0.8457;0.33887;0.30596;0.22948;0.19893
7;0.65789;0.72003;0.74323;0.84773;0.36027;0.32451;0.24898;0.21311
7.05;0.67035;0.72883;0.74723;0.84906;0.38138;0.34256;0.26854;0.2277
7.1;0.68225;0.737;0.75173;0.84973;0.40205;0.36004;0.28808;0.24266
7.15;0.69344;0.74447;0.75663;0.84982;0.4219;0.37673;0.30722;0.2577
7.2;0.70462;0.75171;0.76222;0.84942;0.44206;0.39373;0.32711;0.27374
7.25;0.71516;0.75833;0.7682;0.84859;0.46131;0.41017;0.34662;0.28989
7.3;0.72507;0.76435;0.77452;0.84745;0.47952;0.42606;0.36564;0.30606
7.35;0.73433;0.7698;0.78112;0.84609;0.49654;0.44143;0.38405;0.32215
7.4;0.74295;0.7747;0.78796;0.84461;0.51226;0.45631;0.40177;0.3381
7.45;0.7509;0.77907;0.79498;0.84311;0.52653;0.47071;0.41865;0.35378
7.5;0.75818;0.78292;0.80213;0.84168;0.53939;0.48467;0.43462;0.36914
7.55;0.76479;0.78628;0.80937;0.84041;0.55093;0.49818;0.44958;0.38408
7.6;0.77051;0.78908;0.81639;0.83943;0.5609;0.51081;0.46305;0.39799
7.65;0.77599;0.79168;0.82394;0.83872;0.57048;0.524;0.47658;0.41237
7.7;0.78081;0.7939;0.83143;0.83846;0.57897;0.53678;0.48916;0.42604
7.75;0.78502;0.79578;0.83881;0.83876;0.58647;0.54916;0.50084;0.43889
7.8;0.78867;0.79739;0.84604;0.8397;0.59308;0.56118;0.5117;0.45086
7.85;0.7918;0.79876;0.85307;0.84136;0.59892;0.57285;0.5218;0.46186
7.9;0.79444;0.79995;0.85986;0.84383;0.60407;0.58419;0.5312;0.47182
7.95;0.79666;0.80101;0.86636;0.84721;0.60865;0.59522;0.53996;0.48073
8;0.79848;0.80198;0.87252;0.85155;0.61275;0.60597;0.54813;0.48866
8.05;0.79995;0.80291;0.87834;0.85682;0.61645;0.61645;0.55578;0.49571
8.1;0.80109;0.80382;0.88369;0.86275;0.61979;0.62645;0.5628;0.50183
8.15;0.80201;0.80484;0.889;0.86973;0.62311;0.63676;0.5698;0.50758
8.2;0.80267;0.80595;0.89396;0.87733;0.62629;0.64678;0.5764;0.51264
8.25;0.80312;0.8072;0.89857;0.8854;0.62944;0.65652;0.58265;0.51713
8.3;0.8034;0.80864;0.90284;0.89382;0.63265;0.66597;0.58863;0.52111
8.35;0.80354;0.81031;0.90678;0.90247;0.63601;0.67514;0.59437;0.52469
8.4;0.80359;0.81226;0.9104;0.91122;0.63961;0.68402;0.59993;0.52795
8.45;0.80359;0.81453;0.91372;0.91999;0.64354;0.69263;0.60538;0.53097
8.5;0.80357;0.81715;0.91673;0.92862;0.64786;0.70095;0.61074;0.53383
8.55;0.80356;0.82009;0.91944;0.937;0.65257;0.70896;0.61606;0.53661
8.6;0.80361;0.82331;0.92186;0.94502;0.65762;0.71668;0.62138;0.53938
8.65;0.80374;0.82696;0.9241;0.95292;0.66323;0.72444;0.62694;0.54235
8.7;0.80402;0.83086;0.92605;0.96022;0.66914;0.73189;0.63249;0.54548
8.75;0.80445;0.83497;0.92773;0.96681;0.67531;0.73905;0.63804;0.54886
8.8;0.80509;0.83926;0.92913;0.97259;0.6817;0.74591;0.64356;0.55257
8.85;0.80598;0.84371;0.93027;0.97744;0.68829;0.75247;0.64907;0.55668
8.9;0.80713;0.84828;0.93117;0.98127;0.69502;0.75874;0.65454;0.56127
8.95;0.80859;0.85293;0.93182;0.98395;0.70186;0.76472;0.65998;0.56642
9;0.81039;0.85764;0.93223;0.98541;0.70877;0.7704;0.66536;0.57219
9.05;0.81246;0.86222;0.93241;0.98556;0.71549;0.77563;0.67052;0.57844
9.1;0.81502;0.86713;0.93238;0.9844;0.72271;0.78095;0.67599;0.58591
9.15;0.81791;0.872;0.93212;0.98204;0.72989;0.78599;0.68139;0.59414
9.2;0.82109;0.87681;0.93165;0.97864;0.737;0.79077;0.68669;0.603
9.25;0.82455;0.88152;0.93096;0.97434;0.74401;0.79531;0.69192;0.61242
9.3;0.82825;0.88611;0.93006;0.96931;0.75089;0.79963;0.69706;0.62229
9.35;0.83217;0.89054;0.92898;0.96369;0.75758;0.80372;0.70209;0.63249
9.4;0.83629;0.8948;0.9277;0.95763;0.76407;0.80762;0.70702;0.64295
9.45;0.84057;0.89883;0.92625;0.95128;0.77032;0.81133;0.71182;0.65355
9.5;0.845;0.90263;0.92463;0.94477;0.77629;0.81488;0.71651;0.66422
9.55;0.84948;0.9061;0.92289;0.93835;0.78186;0.8182;0.72098;0.67466
9.6;0.85432;0.90947;0.92094;0.93169;0.78746;0.82157;0.72558;0.68559
9.65;0.85924;0.91249;0.91893;0.92529;0.79276;0.8248;0.73002;0.6963
9.7;0.86421;0.91514;0.91691;0.91931;0.79779;0.8279;0.73429;0.70669
9.75;0.86923;0.91741;0.91494;0.91386;0.8026;0.83089;0.73841;0.71669
9.8;0.87427;0.91924;0.91305;0.9091;0.80719;0.83379;0.74237;0.72619
9.85;0.87929;0.92063;0.9113;0.90515;0.81159;0.8366;0.74614;0.73512
9.9;0.88428;0.92155;0.90974;0.90215;0.81581;0.83934;0.74973;0.74338
9.95;0.88922;0.92197;0.9084;0.90015;0.81989;0.84203;0.75314;0.7509
10;0.89396;0.92189;0.90737;0.89909;0.82373;0.8446;0.75627;0.75742
10.05;0.89884;0.92128;0.90661;0.89885;0.82766;0.84727;0.75936;0.76338
10.1;0.90368;0.92017;0.90623;0.89943;0.83155;0.84996;0.76229;0.76852
10.15;0.90837;0.91861;0.90627;0.90078;0.83538;0.85264;0.76499;0.77285
10.2;0.91289;0.91662;0.90681;0.9028;0.83915;0.85533;0.76748;0.77643
10.25;0.91723;0.91426;0.90786;0.90541;0.84289;0.85803;0.76974;0.77935
10.3;0.92135;0.91156;0.90949;0.90855;0.84662;0.86077;0.77177;0.78167
10.35;0.92526;0.90856;0.91172;0.91214;0.85037;0.86355;0.77357;0.78346
10.4;0.92891;0.9053;0.9146;0.9161;0.85415;0.86638;0.77513;0.78481
10.45;0.9323;0.90182;0.91817;0.92036;0.85797;0.86928;0.77645;0.78577
10.5;0.93533;0.89825;0.92226;0.92472;0.86172;0.87217;0.7775;0.78641
10.55;0.93831;0.89427;0.92722;0.92955;0.86575;0.87532;0.77836;0.78683
10.6;0.94102;0.89017;0.93273;0.93448;0.8698;0.87854;0.77896;0.78705
10.65;0.94349;0.88597;0.9387;0.93945;0.87384;0.88182;0.77928;0.78715
10.7;0.94574;0.88172;0.94506;0.94437;0.87785;0.88512;0.77933;0.78719
10.75;0.94778;0.87745;0.95173;0.94918;0.88183;0.88845;0.7791;0.78724
10.8;0.94963;0.87319;0.95864;0.95382;0.88576;0.8918;0.77859;0.78737
10.85;0.9513;0.86898;0.96572;0.95821;0.88962;0.89514;0.77781;0.78764
10.9;0.95282;0.86485;0.9729;0.9623;0.89341;0.89847;0.77681;0.78812
10.95;0.95419;0.86084;0.98011;0.96601;0.89709;0.90178;0.77563;0.78886
11;0.95542;0.85702;0.98718;0.96927;0.90062;0.90501;0.77436;0.78991
11.05;0.95658;0.85319;0.99451;0.9723;0.90421;0.90835;0.77296;0.79142
11.1;0.95765;0.84959;1.0017;0.97492;0.90765;0.91164;0.77154;0.79337
11.15;0.95862;0.84623;1.0086;0.97716;0.91093;0.91486;0.77016;0.79575
11.2;0.95951;0.84316;1.0152;0.97904;0.91404;0.91799;0.76887;0.7985
11.25;0.96035;0.8404;1.0214;0.98055;0.91696;0.92102;0.76773;0.8016
11.3;0.96113;0.83799;1.0271;0.98174;0.91968;0.92395;0.76679;0.80501
11.35;0.96189;0.83595;1.0324;0.98259;0.92218;0.92676;0.76609;0.80869
11.4;0.96262;0.83431;1.037;0.98315;0.92446;0.92944;0.76569;0.8126
11.45;0.96333;0.83314;1.0409;0.9834;0.92643;0.93189;0.76562;0.81656
11.5;0.9641;0.83235;1.0445;0.98339;0.92835;0.93439;0.76595;0.82103
11.55;0.96489;0.83208;1.0473;0.98309;0.93003;0.93671;0.76675;0.82564
11.6;0.96572;0.83235;1.0496;0.98252;0.9315;0.93885;0.76807;0.83036
11.65;0.9666;0.8332;1.0512;0.9817;0.93277;0.94081;0.76995;0.83517
11.7;0.96755;0.83465;1.0523;0.98064;0.93385;0.94256;0.77245;0.84003
11.75;0.96858;0.83672;1.0529;0.97936;0.93475;0.9441;0.7756;0.8449
11.8;0.9697;0.83946;1.0529;0.97787;0.93547;0.94543;0.77945;0.84976
11.85;0.97092;0.84287;1.0525;0.97618;0.93604;0.94652;0.784;0.85457
11.9;0.97227;0.84694;1.0517;0.9743;0.93646;0.94738;0.78917;0.85931
11.95;0.9737;0.8515;1.0505;0.97231;0.93672;0.94798;0.79472;0.86382
12;0.97535;0.85693;1.0488;0.97004;0.93687;0.94838;0.8011;0.8685
12.05;0.97712;0.86288;1.0468;0.96764;0.93688;0.94855;0.80788;0.87299
12.1;0.97899;0.86928;1.0444;0.96513;0.93678;0.94853;0.81494;0.87727
12.15;0.98093;0.87606;1.0418;0.96253;0.93655;0.94834;0.82223;0.88131
12.2;0.98294;0.88319;1.0388;0.95987;0.93623;0.94802;0.82966;0.88509
12.25;0.985;0.89057;1.0356;0.95717;0.93581;0.94759;0.83714;0.88862
12.3;0.98709;0.89817;1.0322;0.95446;0.93531;0.94707;0.84458;0.8919
12.35;0.98919;0.9059;1.0285;0.95176;0.93473;0.9465;0.8519;0.89496
12.4;0.99128;0.91372;1.0248;0.94908;0.93408;0.9459;0.85905;0.89782
12.45;0.99335;0.9215;1.0209;0.94648;0.93338;0.94529;0.86586;0.90046
12.5;0.99547;0.92963;1.0167;0.94383;0.9326;0.94468;0.87264;0.90304
12.55;0.99755;0.93767;1.0124;0.94127;0.93177;0.94411;0.87897;0.90544
12.6;0.99955;0.94556;1.0081;0.93884;0.93092;0.94361;0.88478;0.90769
12.65;1.0015;0.95326;1.0037;0.93654;0.93004;0.94321;0.89;0.9098
12.7;1.0033;0.96071;0.99937;0.9344;0.92916;0.94293;0.89454;0.91179
12.75;1.005;0.96783;0.99502;0.93245;0.92827;0.9428;0.89832;0.91366
12.8;1.0066;0.9746;0.99071;0.9307;0.92739;0.94284;0.90129;0.91544
12.85;1.0081;0.98095;0.98648;0.92917;0.92653;0.94307;0.90339;0.91714
12.9;1.0093;0.98669;0.98247;0.92792;0.92573;0.9435;0.90465;0.91872
12.95;1.0105;0.99243;0.97829;0.92684;0.9249;0.94416;0.90525;0.92037
13;1.0116;0.99774;0.97426;0.92606;0.92413;0.94501;0.90518;0.92197
